#Energy
#       1eV     2.5eV   5eV     7.5eV   10eV    15eV    20eV    
0.0000	0.8999	0.6810	0.8309	1.2270	1.6590	2.4310	3.0170
1.0000	0.9018	0.6835	0.8303	1.2200	1.6500	2.4130	2.9800
2.0000	0.9037	0.6859	0.8296	1.2130	1.6410	2.3960	2.9440
3.0000	0.9069	0.6898	0.8286	1.2040	1.6270	2.3690	2.8910
4.0000	0.9112	0.6949	0.8274	1.1920	1.6080	2.3350	2.8300
5.0000	0.9165	0.7010	0.8261	1.1800	1.5870	2.2940	2.7670
6.0000	0.9227	0.7078	0.8250	1.1680	1.5640	2.2510	2.7060
7.0000	0.9297	0.7150	0.8241	1.1560	1.5400	2.2070	2.6490
8.0000	0.9374	0.7226	0.8234	1.1450	1.5170	2.1630	2.5940
9.0000	0.9455	0.7304	0.8230	1.1350	1.4950	2.1210	2.5410
10.0000	0.9540	0.7382	0.8228	1.1240	1.4730	2.0800	2.4870
11.0000	0.9628	0.7462	0.8228	1.1140	1.4530	2.0420	2.4330
12.0000	0.9717	0.7542	0.8231	1.1040	1.4330	2.0040	2.3800
13.0000	0.9808	0.7624	0.8236	1.0950	1.4150	1.9680	2.3270
14.0000	0.9899	0.7707	0.8243	1.0860	1.3960	1.9330	2.2770
15.0000	0.9991	0.7792	0.8252	1.0770	1.3780	1.8980	2.2280
16.0000	1.0080	0.7878	0.8264	1.0690	1.3600	1.8630	2.1800
17.0000	1.0180	0.7965	0.8279	1.0610	1.3420	1.8280	2.1320
18.0000	1.0270	0.8054	0.8296	1.0530	1.3240	1.7940	2.0850
19.0000	1.0360	0.8144	0.8315	1.0450	1.3070	1.7590	2.0390
20.0000	1.0450	0.8235	0.8337	1.0380	1.2910	1.7260	1.9930
21.0000	1.0550	0.8328	0.8362	1.0310	1.2740	1.6940	1.9490
22.0000	1.0640	0.8421	0.8388	1.0250	1.2590	1.6620	1.9060
23.0000	1.0740	0.8516	0.8417	1.0190	1.2440	1.6320	1.8640
24.0000	1.0830	0.8612	0.8448	1.0130	1.2290	1.6020	1.8230
25.0000	1.0930	0.8709	0.8481	1.0080	1.2150	1.5730	1.7820
26.0000	1.1030	0.8808	0.8516	1.0030	1.2010	1.5450	1.7420
27.0000	1.1120	0.8908	0.8554	0.9978	1.1880	1.5170	1.7040
28.0000	1.1220	0.9009	0.8594	0.9934	1.1750	1.4900	1.6660
29.0000	1.1320	0.9111	0.8637	0.9894	1.1630	1.4630	1.6290
30.0000	1.1420	0.9214	0.8683	0.9857	1.1510	1.4360	1.5930
31.0000	1.1510	0.9318	0.8731	0.9824	1.1390	1.4110	1.5580
32.0000	1.1610	0.9424	0.8781	0.9793	1.1280	1.3860	1.5240
33.0000	1.1710	0.9530	0.8833	0.9767	1.1170	1.3620	1.4900
34.0000	1.1810	0.9638	0.8888	0.9743	1.1070	1.3380	1.4580
35.0000	1.1910	0.9747	0.8944	0.9723	1.0970	1.3160	1.4260
36.0000	1.2010	0.9857	0.9003	0.9707	1.0880	1.2940	1.3950
37.0000	1.2110	0.9968	0.9064	0.9693	1.0790	1.2720	1.3650
38.0000	1.2210	1.0080	0.9127	0.9683	1.0710	1.2520	1.3360
39.0000	1.2310	1.0190	0.9192	0.9677	1.0630	1.2310	1.3080
40.0000	1.2420	1.0310	0.9260	0.9673	1.0550	1.2120	1.2800
41.0000	1.2520	1.0420	0.9330	0.9673	1.0480	1.1930	1.2530
42.0000	1.2620	1.0540	0.9403	0.9676	1.0410	1.1740	1.2270
43.0000	1.2720	1.0660	0.9478	0.9683	1.0350	1.1570	1.2020
44.0000	1.2820	1.0770	0.9555	0.9692	1.0290	1.1390	1.1780
45.0000	1.2930	1.0890	0.9633	0.9705	1.0230	1.1230	1.1540
46.0000	1.3030	1.1010	0.9714	0.9721	1.0180	1.1070	1.1320
47.0000	1.3130	1.1130	0.9796	0.9740	1.0140	1.0920	1.1090
48.0000	1.3240	1.1250	0.9881	0.9763	1.0090	1.0770	1.0880
49.0000	1.3340	1.1380	0.9967	0.9788	1.0060	1.0630	1.0670
50.0000	1.3440	1.1500	1.0060	0.9816	1.0020	1.0490	1.0470
51.0000	1.3550	1.1620	1.0150	0.9848	0.9991	1.0360	1.0280
52.0000	1.3650	1.1750	1.0240	0.9882	0.9965	1.0240	1.0100
53.0000	1.3750	1.1870	1.0330	0.9919	0.9943	1.0120	0.9918
54.0000	1.3860	1.2000	1.0430	0.9959	0.9924	1.0010	0.9745
55.0000	1.3960	1.2130	1.0530	1.0000	0.9910	0.9897	0.9579
56.0000	1.4060	1.2250	1.0630	1.0050	0.9899	0.9794	0.9420
57.0000	1.4170	1.2380	1.0730	1.0100	0.9892	0.9696	0.9268
58.0000	1.4270	1.2510	1.0830	1.0150	0.9888	0.9603	0.9121
59.0000	1.4380	1.2640	1.0940	1.0200	0.9887	0.9515	0.8980
60.0000	1.4480	1.2770	1.1040	1.0260	0.9890	0.9432	0.8845
61.0000	1.4590	1.2900	1.1150	1.0320	0.9897	0.9354	0.8716
62.0000	1.4690	1.3030	1.1260	1.0380	0.9907	0.9281	0.8593
63.0000	1.4790	1.3160	1.1370	1.0440	0.9920	0.9212	0.8475
64.0000	1.4900	1.3290	1.1490	1.0510	0.9937	0.9148	0.8362
65.0000	1.5000	1.3430	1.1600	1.0580	0.9958	0.9088	0.8255
66.0000	1.5100	1.3560	1.1720	1.0650	0.9981	0.9033	0.8153
67.0000	1.5210	1.3690	1.1830	1.0720	1.0010	0.8982	0.8056
68.0000	1.5310	1.3830	1.1950	1.0800	1.0040	0.8935	0.7964
69.0000	1.5420	1.3960	1.2070	1.0880	1.0070	0.8892	0.7876
70.0000	1.5520	1.4090	1.2190	1.0960	1.0100	0.8853	0.7793
71.0000	1.5620	1.4230	1.2310	1.1040	1.0140	0.8818	0.7715
72.0000	1.5720	1.4360	1.2440	1.1130	1.0180	0.8787	0.7641
73.0000	1.5830	1.4500	1.2560	1.1210	1.0230	0.8759	0.7571
74.0000	1.5930	1.4630	1.2690	1.1300	1.0270	0.8736	0.7506
75.0000	1.6030	1.4770	1.2810	1.1390	1.0320	0.8715	0.7444
76.0000	1.6130	1.4900	1.2940	1.1480	1.0370	0.8699	0.7387
77.0000	1.6240	1.5040	1.3070	1.1580	1.0430	0.8686	0.7333
78.0000	1.6340	1.5180	1.3200	1.1670	1.0480	0.8676	0.7283
79.0000	1.6440	1.5310	1.3330	1.1770	1.0540	0.8669	0.7236
80.0000	1.6540	1.5450	1.3460	1.1870	1.0600	0.8665	0.7193
81.0000	1.6640	1.5580	1.3590	1.1970	1.0660	0.8664	0.7153
82.0000	1.6740	1.5720	1.3720	1.2070	1.0730	0.8665	0.7117
83.0000	1.6840	1.5850	1.3860	1.2170	1.0790	0.8669	0.7084
84.0000	1.6940	1.5990	1.3990	1.2270	1.0860	0.8676	0.7053
85.0000	1.7040	1.6120	1.4120	1.2380	1.0930	0.8686	0.7026
86.0000	1.7140	1.6260	1.4260	1.2490	1.1000	0.8698	0.7001
87.0000	1.7240	1.6390	1.4390	1.2590	1.1080	0.8713	0.6979
88.0000	1.7330	1.6530	1.4530	1.2700	1.1150	0.8731	0.6960
89.0000	1.7430	1.6660	1.4670	1.2810	1.1230	0.8750	0.6943
90.0000	1.7530	1.6800	1.4800	1.2920	1.1310	0.8772	0.6929
91.0000	1.7620	1.6930	1.4940	1.3030	1.1390	0.8796	0.6917
92.0000	1.7720	1.7060	1.5070	1.3150	1.1470	0.8822	0.6907
93.0000	1.7820	1.7200	1.5210	1.3260	1.1550	0.8849	0.6899
94.0000	1.7910	1.7330	1.5350	1.3370	1.1630	0.8878	0.6894
95.0000	1.8010	1.7460	1.5480	1.3490	1.1720	0.8909	0.6890
96.0000	1.8100	1.7590	1.5620	1.3600	1.1800	0.8941	0.6889
97.0000	1.8190	1.7720	1.5760	1.3720	1.1890	0.8975	0.6889
98.0000	1.8280	1.7850	1.5890	1.3830	1.1980	0.9011	0.6891
99.0000	1.8380	1.7980	1.6030	1.3950	1.2070	0.9048	0.6894
100.0000	1.8470	1.8110	1.6170	1.4170	1.2150	0.9088	0.6899
101.0000	1.8560	1.8240	1.6300	1.4180	1.2250	0.9128	0.6906
102.0000	1.8650	1.8370	1.6440	1.4300	1.2340	0.9170	0.6914
103.0000	1.8740	1.8500	1.6580	1.4420	1.2430	0.9212	0.6923
104.0000	1.8830	1.8620	1.6710	1.4540	1.2520	0.9255	0.6934
105.0000	1.8910	1.8750	1.6850	1.4650	1.2610	0.9299	0.6946
106.0000	1.9000	1.8870	1.6980	1.4770	1.2700	0.9344	0.6959
107.0000	1.9090	1.9000	1.7110	1.4890	1.2790	0.9390	0.6973
108.0000	1.9170	1.9120	1.7240	1.5000	1.2890	0.9436	0.6988
109.0000	1.9260	1.9240	1.7380	1.5120	1.2980	0.9484	0.7004
110.0000	1.9340	1.9360	1.7510	1.5240	1.3070	0.9532	0.7022
111.0000	1.9430	1.9480	1.7640	1.5350	1.3170	0.9582	0.7040
112.0000	1.9510	1.9600	1.7770	1.5470	1.3260	0.9632	0.7059
113.0000	1.9590	1.9720	1.7900	1.5590	1.3360	0.9683	0.7078
114.0000	1.9670	1.9840	1.8030	1.5700	1.3450	0.9734	0.7098
115.0000	1.9750	1.9950	1.8160	1.5820	1.3540	0.9785	0.7118
116.0000	1.9830	2.0070	1.8290	1.5930	1.3640	0.9836	0.7140
117.0000	1.9910	2.0180	1.8410	1.6040	1.3730	0.9887	0.7162
118.0000	1.9980	2.0300	1.8540	1.6160	1.3820	0.9938	0.7184
119.0000	2.0060	2.0410	1.8660	1.6270	1.3910	0.9989	0.7207
120.0000	2.0140	2.0520	1.8780	1.6380	1.4000	1.0040	0.7231
121.0000	2.0210	2.0630	1.8900	1.6490	1.4090	1.0090	0.7254
122.0000	2.0280	2.0730	1.9020	1.6600	1.4180	1.0150	0.7277
123.0000	2.0360	2.0840	1.9140	1.6710	1.4280	1.0200	0.7302
124.0000	2.0430	2.0950	1.9260	1.6820	1.4370	1.0250	0.7326
125.0000	2.0500	2.1050	1.9380	1.6920	1.4450	1.0300	0.7351
126.0000	2.0570	2.1150	1.9490	1.7030	1.4540	1.0350	0.7376
127.0000	2.0630	2.1250	1.9610	1.7130	1.4630	1.0410	0.7400
128.0000	2.0700	2.1350	1.9720	1.7240	1.4720	1.0460	0.7425
129.0000	2.0770	2.1450	1.9830	1.7340	1.4800	1.0510	0.7450
130.0000	2.0830	2.1550	1.9940	1.7440	1.4880	1.0560	0.7475
131.0000	2.0900	2.1640	2.0050	1.7540	1.4970	1.0610	0.7500
132.0000	2.0960	2.1740	2.0150	1.7640	1.5050	1.0650	0.7525
133.0000	2.1020	2.1830	2.0260	1.7730	1.5130	1.0700	0.7550
134.0000	2.1080	2.1920	2.0360	1.7830	1.5210	1.0750	0.7574
135.0000	2.1140	2.2010	2.0460	1.7920	1.5290	1.0800	0.7598
136.0000	2.1200	2.2100	2.0560	1.8010	1.5370	1.0850	0.7622
137.0000	2.1260	2.2180	2.0660	1.8110	1.5450	1.0900	0.7647
138.0000	2.1320	2.2270	2.0760	1.8200	1.5530	1.0940	0.7671
139.0000	2.1370	2.2350	2.0850	1.8280	1.5600	1.0990	0.7695
140.0000	2.1420	2.2430	2.0940	1.8370	1.5670	1.1030	0.7718
141.0000	2.1480	2.2510	2.1030	1.8450	1.5740	1.1080	0.7741
142.0000	2.1530	2.2590	2.1120	1.8540	1.5810	1.1120	0.7764
143.0000	2.1580	2.2660	2.1210	1.8620	1.5880	1.1160	0.7786
144.0000	2.1630	2.2740	2.1290	1.8700	1.5950	1.1200	0.7808
145.0000	2.1680	2.2810	2.1370	1.8770	1.6010	1.1250	0.7829
146.0000	2.1720	2.2880	2.1460	1.8850	1.6080	1.1290	0.7851
147.0000	2.1770	2.2950	2.1540	1.8920	1.6140	1.1330	0.7872
148.0000	2.1810	2.3010	2.1610	1.9000	1.6210	1.1370	0.7892
149.0000	2.1850	2.3080	2.1690	1.9070	1.6270	1.1400	0.7912
150.0000	2.1900	2.3140	2.1760	1.9130	1.6320	1.1440	0.7931
151.0000	2.1940	2.3200	2.1830	1.9200	1.6380	1.1470	0.7950
152.0000	2.1970	2.3260	2.1900	1.9260	1.6430	1.1510	0.7969
153.0000	2.2010	2.3320	2.1960	1.9330	1.6490	1.1540	0.7987
154.0000	2.2050	2.3370	2.2030	1.9390	1.6540	1.1570	0.8005
155.0000	2.2080	2.3420	2.2090	1.9440	1.6590	1.1600	0.8021
156.0000	2.2120	2.3480	2.2150	1.9500	1.6630	1.1630	0.8037
157.0000	2.2150	2.3530	2.2200	1.9550	1.6680	1.1660	0.8053
158.0000	2.2180	2.3570	2.2260	1.9600	1.6730	1.1690	0.8068
159.0000	2.2210	2.3620	2.2310	1.9650	1.6770	1.1720	0.8082
160.0000	2.2240	2.3660	2.2360	1.9700	1.6810	1.1750	0.8097
161.0000	2.2270	2.3700	2.2410	1.9750	1.6850	1.1770	0.8110
162.0000	2.2290	2.3740	2.2460	1.9790	1.6890	1.1790	0.8123
163.0000	2.2320	2.3780	2.2500	1.9830	1.6920	1.1820	0.8135
164.0000	2.2340	2.3810	2.2540	1.9870	1.6950	1.1830	0.8146
165.0000	2.2360	2.3840	2.2570	1.9900	1.6980	1.1850	0.8156
166.0000	2.2380	2.3880	2.2610	1.9940	1.7010	1.1870	0.8166
167.0000	2.2400	2.3900	2.2640	1.9970	1.7040	1.1890	0.8176
168.0000	2.2420	2.3930	2.2670	2.0000	1.7060	1.1900	0.8186
169.0000	2.2430	2.3960	2.2700	2.0030	1.7090	1.1920	0.8194
170.0000	2.2450	2.3980	2.2730	2.0050	1.7110	1.1930	0.8201
171.0000	2.2460	2.4000	2.2760	2.0070	1.7130	1.1950	0.8207
172.0000	2.2470	2.4020	2.2780	2.0090	1.7150	1.1960	0.8212
173.0000	2.2480	2.4130	2.2800	2.0110	1.7170	1.1970	0.8218
174.0000	2.2490	2.4050	2.2810	2.0130	1.7180	1.1980	0.8223
175.0000	2.2500	2.4060	2.2820	2.0140	1.7190	1.1980	8.2280
176.0000	2.2510	2.4070	2.2830	2.0150	1.7190	1.1990	0.8231
177.0000	2.2510	2.4070	2.2840	2.0160	1.7200	1.1990	0.8233
178.0000	2.2510	2.4080	2.2850	2.0160	1.7200	1.1990	0.8233
179.0000	2.2520	2.4080	2.2850	2.0170	1.7200	1.1990	0.8233
180.0000	2.2520	2.4080	2.2850	2.0170	1.7200	1.1990	0.8233
